        time[s],    volint[cm3],
    0.50000E-04,    0.99817E+03,
    0.55000E-03,    0.99844E+03,
    0.10500E-02,    0.99909E+03,
    0.15500E-02,    0.99934E+03,
    0.20500E-02,    0.99939E+03,
    0.25500E-02,    0.99927E+03,
    0.30500E-02,    0.99927E+03,
    0.35500E-02,    0.99928E+03,
    0.40500E-02,    0.99860E+03,
    0.45500E-02,    0.99656E+03,
    0.50500E-02,    0.99353E+03,
    0.55500E-02,    0.98895E+03,
    0.60500E-02,    0.98142E+03,
    0.65500E-02,    0.97058E+03,
    0.70500E-02,    0.95708E+03,
    0.75500E-02,    0.94036E+03,
    0.80500E-02,    0.91916E+03,
    0.85500E-02,    0.89380E+03,
    0.90500E-02,    0.86555E+03,
    0.95500E-02,    0.83432E+03,
    0.10050E-01,    0.79929E+03,
    0.10550E-01,    0.76110E+03,
    0.11050E-01,    0.72091E+03,
    0.11550E-01,    0.67865E+03,
    0.12050E-01,    0.63413E+03,
    0.12550E-01,    0.58824E+03,
    0.13050E-01,    0.54158E+03,
    0.13550E-01,    0.49414E+03,
    0.14050E-01,    0.44608E+03,
    0.14550E-01,    0.39747E+03,
    0.15050E-01,    0.34878E+03,
    0.15550E-01,    0.30096E+03,
    0.16050E-01,    0.25542E+03,
    0.16550E-01,    0.21417E+03,
    0.17050E-01,    0.17905E+03,
    0.17550E-01,    0.15052E+03,
    0.18050E-01,    0.12955E+03,
    0.18550E-01,    0.11041E+03,
    0.19050E-01,    0.97675E+02,
    0.19550E-01,    0.90782E+02,
    0.20050E-01,    0.88920E+02,
    0.20550E-01,    0.90090E+02,
    0.21050E-01,    0.90630E+02,
    0.21550E-01,    0.90994E+02,
    0.22050E-01,    0.91560E+02,
    0.22550E-01,    0.91991E+02,
    0.23050E-01,    0.92359E+02,
    0.23550E-01,    0.92724E+02,
    0.24050E-01,    0.93017E+02,
    0.24550E-01,    0.93283E+02,
    0.25050E-01,    0.93515E+02,
    0.25550E-01,    0.93773E+02,
    0.26050E-01,    0.94054E+02,
    0.26550E-01,    0.94281E+02,
    0.27050E-01,    0.94511E+02,
    0.27550E-01,    0.94740E+02,
    0.28050E-01,    0.94954E+02,
    0.28550E-01,    0.95159E+02,
    0.29050E-01,    0.95326E+02,
    0.29550E-01,    0.95525E+02,
    0.30050E-01,    0.95702E+02,
    0.30550E-01,    0.95856E+02,
    0.31050E-01,    0.96025E+02,
    0.31550E-01,    0.96173E+02,
    0.32050E-01,    0.96304E+02,
    0.32550E-01,    0.96442E+02,
    0.33050E-01,    0.96578E+02,
    0.33550E-01,    0.96706E+02,
    0.34050E-01,    0.96802E+02,
    0.34550E-01,    0.96912E+02,
    0.35050E-01,    0.97020E+02,
    0.35550E-01,    0.97114E+02,
    0.36050E-01,    0.97203E+02,
    0.36550E-01,    0.97298E+02,
    0.37050E-01,    0.97393E+02,
    0.37550E-01,    0.97473E+02,
    0.38050E-01,    0.97554E+02,
    0.38550E-01,    0.97629E+02,
    0.39050E-01,    0.97709E+02,
    0.39550E-01,    0.97780E+02,
    0.40050E-01,    0.97854E+02,
    0.40550E-01,    0.97929E+02,
    0.41050E-01,    0.98005E+02,
    0.41550E-01,    0.98070E+02,
    0.42050E-01,    0.98141E+02,
    0.42550E-01,    0.98211E+02,
    0.43050E-01,    0.98281E+02,
    0.43550E-01,    0.98358E+02,
    0.44050E-01,    0.98428E+02,
    0.44550E-01,    0.98498E+02,
    0.45050E-01,    0.98561E+02,
    0.45550E-01,    0.98624E+02,
    0.46050E-01,    0.98696E+02,
    0.46550E-01,    0.98766E+02,
    0.47050E-01,    0.98834E+02,
    0.47550E-01,    0.98901E+02,
    0.48050E-01,    0.98969E+02,
    0.48550E-01,    0.99029E+02,
    0.49050E-01,    0.99093E+02,
    0.49550E-01,    0.99162E+02,
    0.50050E-01,    0.99226E+02,
    0.50550E-01,    0.99286E+02,
    0.51050E-01,    0.99340E+02,
    0.51550E-01,    0.99402E+02,
    0.52050E-01,    0.99453E+02,
    0.52550E-01,    0.99513E+02,
    0.53050E-01,    0.99567E+02,
    0.53550E-01,    0.99627E+02,
    0.54050E-01,    0.99671E+02,
    0.54550E-01,    0.99729E+02,
    0.55050E-01,    0.99777E+02,
    0.55550E-01,    0.99826E+02,
    0.56050E-01,    0.99871E+02,
    0.56550E-01,    0.99909E+02,
    0.57050E-01,    0.99961E+02,
    0.57550E-01,    0.10000E+03,
    0.58050E-01,    0.10005E+03,
    0.58550E-01,    0.10009E+03,
    0.59050E-01,    0.10012E+03,
    0.59550E-01,    0.10016E+03,
    0.60050E-01,    0.10021E+03,
    0.60550E-01,    0.10025E+03,
    0.61050E-01,    0.10028E+03,
    0.61550E-01,    0.10032E+03,
    0.62050E-01,    0.10035E+03,
    0.62550E-01,    0.10039E+03,
    0.63050E-01,    0.10043E+03,
    0.63550E-01,    0.10047E+03,
    0.64050E-01,    0.10050E+03,
    0.64550E-01,    0.10054E+03,
    0.65050E-01,    0.10058E+03,
    0.65550E-01,    0.10061E+03,
    0.66050E-01,    0.10065E+03,
    0.66550E-01,    0.10069E+03,
    0.67050E-01,    0.10073E+03,
    0.67550E-01,    0.10077E+03,
    0.68050E-01,    0.10080E+03,
    0.68550E-01,    0.10084E+03,
    0.69050E-01,    0.10088E+03,
    0.69550E-01,    0.10091E+03,
    0.70050E-01,    0.10096E+03,
    0.70550E-01,    0.10100E+03,
    0.71050E-01,    0.10103E+03,
    0.71550E-01,    0.10107E+03,
    0.72050E-01,    0.10111E+03,
    0.72550E-01,    0.10115E+03,
    0.73050E-01,    0.10119E+03,
    0.73550E-01,    0.10122E+03,
    0.74050E-01,    0.10126E+03,
    0.74550E-01,    0.10130E+03,
    0.75050E-01,    0.10134E+03,
    0.75550E-01,    0.10137E+03,
    0.76050E-01,    0.10140E+03,
    0.76550E-01,    0.10143E+03,
    0.77050E-01,    0.10147E+03,
    0.77550E-01,    0.10150E+03,
    0.78050E-01,    0.10153E+03,
    0.78550E-01,    0.10155E+03,
    0.79050E-01,    0.10158E+03,
    0.79550E-01,    0.10162E+03,
    0.80050E-01,    0.10164E+03,
    0.80550E-01,    0.10167E+03,
    0.81050E-01,    0.10170E+03,
    0.81550E-01,    0.10173E+03,
    0.82050E-01,    0.10175E+03,
    0.82550E-01,    0.10177E+03,
    0.83050E-01,    0.10180E+03,
    0.83550E-01,    0.10183E+03,
    0.84050E-01,    0.10185E+03,
    0.84550E-01,    0.10188E+03,
    0.85050E-01,    0.10190E+03,
    0.85550E-01,    0.10193E+03,
    0.86050E-01,    0.10196E+03,
    0.86550E-01,    0.10198E+03,
    0.87050E-01,    0.10200E+03,
    0.87550E-01,    0.10203E+03,
    0.88050E-01,    0.10205E+03,
    0.88550E-01,    0.10207E+03,
    0.89050E-01,    0.10209E+03,
    0.89550E-01,    0.10212E+03,
    0.90050E-01,    0.10215E+03,
    0.90550E-01,    0.10217E+03,
    0.91050E-01,    0.10219E+03,
    0.91550E-01,    0.10222E+03,
    0.92050E-01,    0.10225E+03,
    0.92550E-01,    0.10227E+03,
    0.93050E-01,    0.10230E+03,
    0.93550E-01,    0.10233E+03,
    0.94050E-01,    0.10236E+03,
    0.94550E-01,    0.10238E+03,
    0.95050E-01,    0.10241E+03,
    0.95550E-01,    0.10244E+03,
    0.96050E-01,    0.10247E+03,
    0.96550E-01,    0.10250E+03,
    0.97050E-01,    0.10252E+03,
    0.97550E-01,    0.10255E+03,
    0.98050E-01,    0.10258E+03,
    0.98550E-01,    0.10260E+03,
    0.99050E-01,    0.10263E+03,
    0.99550E-01,    0.10266E+03,
    0.10005E+00,    0.10269E+03,
    0.10055E+00,    0.10272E+03,
    0.10105E+00,    0.10274E+03,
    0.10155E+00,    0.10277E+03,
    0.10205E+00,    0.10279E+03,
    0.10255E+00,    0.10283E+03,
    0.10305E+00,    0.10285E+03,
    0.10355E+00,    0.10288E+03,
    0.10405E+00,    0.10291E+03,
    0.10455E+00,    0.10294E+03,
    0.10505E+00,    0.10296E+03,
    0.10555E+00,    0.10299E+03,
    0.10605E+00,    0.10302E+03,
    0.10655E+00,    0.10304E+03,
    0.10705E+00,    0.10307E+03,
    0.10755E+00,    0.10310E+03,
    0.10805E+00,    0.10312E+03,
    0.10855E+00,    0.10315E+03,
    0.10905E+00,    0.10317E+03,
    0.10955E+00,    0.10320E+03,
    0.11005E+00,    0.10322E+03,
    0.11055E+00,    0.10325E+03,
    0.11105E+00,    0.10328E+03,
    0.11155E+00,    0.10331E+03,
    0.11205E+00,    0.10333E+03,
    0.11255E+00,    0.10336E+03,
    0.11305E+00,    0.10340E+03,
    0.11355E+00,    0.10342E+03,
    0.11405E+00,    0.10345E+03,
    0.11455E+00,    0.10347E+03,
    0.11505E+00,    0.10350E+03,
    0.11555E+00,    0.10354E+03,
    0.11605E+00,    0.10357E+03,
    0.11655E+00,    0.10360E+03,
    0.11705E+00,    0.10362E+03,
    0.11755E+00,    0.10365E+03,
    0.11805E+00,    0.10368E+03,
    0.11855E+00,    0.10372E+03,
    0.11905E+00,    0.10375E+03,
    0.11955E+00,    0.10378E+03,
    0.12005E+00,    0.10381E+03,
    0.12055E+00,    0.10383E+03,
    0.12105E+00,    0.10386E+03,
    0.12155E+00,    0.10389E+03,
    0.12205E+00,    0.10393E+03,
    0.12255E+00,    0.10396E+03,
    0.12305E+00,    0.10399E+03,
    0.12355E+00,    0.10403E+03,
    0.12405E+00,    0.10405E+03,
    0.12455E+00,    0.10408E+03,
    0.12505E+00,    0.10411E+03,
    0.12555E+00,    0.10415E+03,
    0.12605E+00,    0.10418E+03,
    0.12655E+00,    0.10421E+03,
    0.12705E+00,    0.10424E+03,
    0.12755E+00,    0.10427E+03,
    0.12805E+00,    0.10429E+03,
    0.12855E+00,    0.10433E+03,
    0.12905E+00,    0.10436E+03,
    0.12955E+00,    0.10439E+03,
    0.13005E+00,    0.10442E+03,
    0.13055E+00,    0.10444E+03,
    0.13105E+00,    0.10447E+03,
    0.13155E+00,    0.10450E+03,
    0.13205E+00,    0.10454E+03,
    0.13255E+00,    0.10456E+03,
    0.13305E+00,    0.10459E+03,
    0.13355E+00,    0.10462E+03,
    0.13405E+00,    0.10465E+03,
    0.13455E+00,    0.10468E+03,
    0.13505E+00,    0.10470E+03,
    0.13555E+00,    0.10473E+03,
    0.13605E+00,    0.10477E+03,
    0.13655E+00,    0.10480E+03,
    0.13705E+00,    0.10482E+03,
    0.13755E+00,    0.10486E+03,
    0.13805E+00,    0.10488E+03,
    0.13855E+00,    0.10491E+03,
    0.13905E+00,    0.10494E+03,
    0.13955E+00,    0.10497E+03,
    0.14005E+00,    0.10500E+03,
    0.14055E+00,    0.10503E+03,
    0.14105E+00,    0.10506E+03,
    0.14155E+00,    0.10509E+03,
    0.14205E+00,    0.10512E+03,
    0.14255E+00,    0.10515E+03,
    0.14305E+00,    0.10518E+03,
    0.14355E+00,    0.10521E+03,
    0.14405E+00,    0.10523E+03,
    0.14455E+00,    0.10527E+03,
    0.14505E+00,    0.10530E+03,
    0.14555E+00,    0.10533E+03,
    0.14605E+00,    0.10536E+03,
    0.14655E+00,    0.10539E+03,
    0.14705E+00,    0.10542E+03,
    0.14755E+00,    0.10544E+03,
    0.14805E+00,    0.10548E+03,
    0.14855E+00,    0.10551E+03,
    0.14905E+00,    0.10553E+03,
    0.14955E+00,    0.10556E+03,
    0.15005E+00,    0.10559E+03,
    0.15055E+00,    0.10561E+03,
    0.15105E+00,    0.10565E+03,
    0.15155E+00,    0.10568E+03,
    0.15205E+00,    0.10571E+03,
    0.15255E+00,    0.10573E+03,
    0.15305E+00,    0.10576E+03,
    0.15355E+00,    0.10579E+03,
    0.15405E+00,    0.10582E+03,
    0.15455E+00,    0.10585E+03,
    0.15505E+00,    0.10588E+03,
    0.15555E+00,    0.10591E+03,
    0.15605E+00,    0.10594E+03,
    0.15655E+00,    0.10596E+03,
    0.15705E+00,    0.10599E+03,
    0.15755E+00,    0.10601E+03,
    0.15805E+00,    0.10604E+03,
    0.15855E+00,    0.10608E+03,
    0.15905E+00,    0.10611E+03,
    0.15955E+00,    0.10613E+03,
    0.16005E+00,    0.10616E+03,
    0.16055E+00,    0.10618E+03,
    0.16105E+00,    0.10621E+03,
    0.16155E+00,    0.10624E+03,
    0.16205E+00,    0.10627E+03,
    0.16255E+00,    0.10630E+03,
    0.16305E+00,    0.10633E+03,
    0.16355E+00,    0.10635E+03,
    0.16405E+00,    0.10638E+03,
    0.16455E+00,    0.10641E+03,
    0.16505E+00,    0.10644E+03,
    0.16555E+00,    0.10646E+03,
    0.16605E+00,    0.10650E+03,
    0.16655E+00,    0.10652E+03,
    0.16705E+00,    0.10655E+03,
    0.16755E+00,    0.10658E+03,
    0.16805E+00,    0.10661E+03,
    0.16855E+00,    0.10663E+03,
    0.16905E+00,    0.10666E+03,
    0.16955E+00,    0.10669E+03,
    0.17005E+00,    0.10672E+03,
    0.17055E+00,    0.10674E+03,
    0.17105E+00,    0.10677E+03,
    0.17155E+00,    0.10680E+03,
    0.17205E+00,    0.10683E+03,
    0.17255E+00,    0.10686E+03,
    0.17305E+00,    0.10688E+03,
    0.17355E+00,    0.10691E+03,
    0.17405E+00,    0.10693E+03,
    0.17455E+00,    0.10697E+03,
    0.17505E+00,    0.10700E+03,
    0.17555E+00,    0.10701E+03,
    0.17605E+00,    0.10704E+03,
    0.17655E+00,    0.10707E+03,
    0.17705E+00,    0.10710E+03,
    0.17755E+00,    0.10712E+03,
    0.17805E+00,    0.10714E+03,
    0.17855E+00,    0.10718E+03,
    0.17905E+00,    0.10720E+03,
    0.17955E+00,    0.10723E+03,
    0.18005E+00,    0.10725E+03,
    0.18055E+00,    0.10729E+03,
    0.18105E+00,    0.10731E+03,
    0.18155E+00,    0.10734E+03,
    0.18205E+00,    0.10736E+03,
    0.18255E+00,    0.10739E+03,
    0.18305E+00,    0.10741E+03,
    0.18355E+00,    0.10743E+03,
    0.18405E+00,    0.10746E+03,
    0.18455E+00,    0.10749E+03,
    0.18505E+00,    0.10752E+03,
    0.18555E+00,    0.10755E+03,
    0.18605E+00,    0.10757E+03,
    0.18655E+00,    0.10759E+03,
    0.18705E+00,    0.10762E+03,
    0.18755E+00,    0.10765E+03,
    0.18805E+00,    0.10767E+03,
    0.18855E+00,    0.10770E+03,
    0.18905E+00,    0.10773E+03,
    0.18955E+00,    0.10775E+03,
    0.19005E+00,    0.10778E+03,
    0.19055E+00,    0.10780E+03,
    0.19105E+00,    0.10783E+03,
    0.19155E+00,    0.10786E+03,
    0.19205E+00,    0.10788E+03,
    0.19255E+00,    0.10791E+03,
    0.19305E+00,    0.10794E+03,
    0.19355E+00,    0.10796E+03,
    0.19405E+00,    0.10799E+03,
    0.19455E+00,    0.10802E+03,
    0.19505E+00,    0.10805E+03,
    0.19555E+00,    0.10807E+03,
    0.19605E+00,    0.10810E+03,
    0.19655E+00,    0.10812E+03,
    0.19705E+00,    0.10814E+03,
    0.19755E+00,    0.10817E+03,
    0.19805E+00,    0.10820E+03,
    0.19855E+00,    0.10823E+03,
    0.19905E+00,    0.10825E+03,
    0.19955E+00,    0.10827E+03,
    0.20005E+00,    0.10830E+03,
    0.20055E+00,    0.10832E+03,
    0.20105E+00,    0.10835E+03,
    0.20155E+00,    0.10838E+03,
    0.20205E+00,    0.10841E+03,
    0.20255E+00,    0.10843E+03,
    0.20305E+00,    0.10846E+03,
    0.20355E+00,    0.10848E+03,
    0.20405E+00,    0.10850E+03,
    0.20455E+00,    0.10854E+03,
    0.20505E+00,    0.10856E+03,
    0.20555E+00,    0.10859E+03,
    0.20605E+00,    0.10861E+03,
    0.20655E+00,    0.10864E+03,
    0.20705E+00,    0.10866E+03,
    0.20755E+00,    0.10869E+03,
    0.20805E+00,    0.10872E+03,
    0.20855E+00,    0.10874E+03,
    0.20905E+00,    0.10876E+03,
    0.20955E+00,    0.10879E+03,
    0.21005E+00,    0.10882E+03,
    0.21055E+00,    0.10885E+03,
    0.21105E+00,    0.10887E+03,
    0.21155E+00,    0.10889E+03,
    0.21205E+00,    0.10892E+03,
    0.21255E+00,    0.10894E+03,
    0.21305E+00,    0.10897E+03,
    0.21355E+00,    0.10900E+03,
    0.21405E+00,    0.10903E+03,
    0.21455E+00,    0.10905E+03,
    0.21505E+00,    0.10907E+03,
    0.21555E+00,    0.10910E+03,
    0.21605E+00,    0.10913E+03,
    0.21655E+00,    0.10916E+03,
    0.21705E+00,    0.10918E+03,
    0.21755E+00,    0.10921E+03,
    0.21805E+00,    0.10924E+03,
    0.21855E+00,    0.10926E+03,
    0.21905E+00,    0.10928E+03,
    0.21955E+00,    0.10930E+03,
    0.22005E+00,    0.10933E+03,
    0.22055E+00,    0.10936E+03,
    0.22105E+00,    0.10939E+03,
    0.22155E+00,    0.10941E+03,
    0.22205E+00,    0.10943E+03,
    0.22255E+00,    0.10946E+03,
    0.22305E+00,    0.10948E+03,
    0.22355E+00,    0.10951E+03,
    0.22405E+00,    0.10954E+03,
    0.22455E+00,    0.10957E+03,
    0.22505E+00,    0.10959E+03,
    0.22555E+00,    0.10961E+03,
    0.22605E+00,    0.10964E+03,
    0.22655E+00,    0.10966E+03,
    0.22705E+00,    0.10969E+03,
    0.22755E+00,    0.10972E+03,
    0.22805E+00,    0.10974E+03,
    0.22855E+00,    0.10976E+03,
    0.22905E+00,    0.10979E+03,
    0.22955E+00,    0.10981E+03,
    0.23005E+00,    0.10984E+03,
    0.23055E+00,    0.10987E+03,
    0.23105E+00,    0.10989E+03,
    0.23155E+00,    0.10992E+03,
    0.23205E+00,    0.10994E+03,
    0.23255E+00,    0.10997E+03,
    0.23305E+00,    0.10999E+03,
    0.23355E+00,    0.11002E+03,
    0.23405E+00,    0.11004E+03,
    0.23455E+00,    0.11007E+03,
    0.23505E+00,    0.11009E+03,
    0.23555E+00,    0.11012E+03,
    0.23605E+00,    0.11015E+03,
    0.23655E+00,    0.11017E+03,
    0.23705E+00,    0.11020E+03,
    0.23755E+00,    0.11022E+03,
    0.23805E+00,    0.11024E+03,
    0.23855E+00,    0.11027E+03,
    0.23905E+00,    0.11029E+03,
    0.23955E+00,    0.11032E+03,
    0.24005E+00,    0.11034E+03,
    0.24055E+00,    0.11038E+03,
    0.24105E+00,    0.11040E+03,
    0.24155E+00,    0.11042E+03,
    0.24205E+00,    0.11044E+03,
    0.24255E+00,    0.11047E+03,
    0.24305E+00,    0.11049E+03,
    0.24355E+00,    0.11052E+03,
    0.24405E+00,    0.11055E+03,
    0.24455E+00,    0.11058E+03,
    0.24505E+00,    0.11059E+03,
    0.24555E+00,    0.11062E+03,
    0.24605E+00,    0.11064E+03,
    0.24655E+00,    0.11067E+03,
    0.24705E+00,    0.11070E+03,
    0.24755E+00,    0.11073E+03,
    0.24805E+00,    0.11075E+03,
    0.24855E+00,    0.11077E+03,
    0.24905E+00,    0.11079E+03,
    0.24955E+00,    0.11082E+03,
    0.25005E+00,    0.11085E+03,
    0.25055E+00,    0.11087E+03,
    0.25105E+00,    0.11090E+03,
    0.25155E+00,    0.11093E+03,
    0.25205E+00,    0.11095E+03,
    0.25255E+00,    0.11097E+03,
    0.25305E+00,    0.11100E+03,
    0.25355E+00,    0.11103E+03,
    0.25405E+00,    0.11106E+03,
    0.25455E+00,    0.11108E+03,
    0.25505E+00,    0.11111E+03,
    0.25555E+00,    0.11113E+03,
    0.25605E+00,    0.11116E+03,
    0.25655E+00,    0.11118E+03,
    0.25705E+00,    0.11121E+03,
    0.25755E+00,    0.11124E+03,
    0.25805E+00,    0.11125E+03,
    0.25855E+00,    0.11128E+03,
    0.25905E+00,    0.11131E+03,
    0.25955E+00,    0.11133E+03,
    0.26005E+00,    0.11136E+03,
    0.26055E+00,    0.11139E+03,
    0.26105E+00,    0.11141E+03,
    0.26155E+00,    0.11144E+03,
    0.26205E+00,    0.11146E+03,
    0.26255E+00,    0.11148E+03,
    0.26305E+00,    0.11151E+03,
    0.26355E+00,    0.11154E+03,
    0.26405E+00,    0.11156E+03,
    0.26455E+00,    0.11159E+03,
    0.26505E+00,    0.11161E+03,
    0.26555E+00,    0.11163E+03,
    0.26605E+00,    0.11166E+03,
    0.26655E+00,    0.11169E+03,
    0.26705E+00,    0.11172E+03,
    0.26755E+00,    0.11174E+03,
    0.26805E+00,    0.11176E+03,
    0.26855E+00,    0.11178E+03,
    0.26905E+00,    0.11181E+03,
    0.26955E+00,    0.11184E+03,
    0.27005E+00,    0.11186E+03,
    0.27055E+00,    0.11190E+03,
    0.27105E+00,    0.11192E+03,
    0.27155E+00,    0.11194E+03,
    0.27205E+00,    0.11197E+03,
    0.27255E+00,    0.11199E+03,
    0.27305E+00,    0.11201E+03,
    0.27355E+00,    0.11204E+03,
    0.27405E+00,    0.11207E+03,
    0.27455E+00,    0.11209E+03,
    0.27505E+00,    0.11211E+03,
    0.27555E+00,    0.11214E+03,
    0.27605E+00,    0.11216E+03,
    0.27655E+00,    0.11219E+03,
    0.27705E+00,    0.11222E+03,
    0.27755E+00,    0.11224E+03,
    0.27805E+00,    0.11226E+03,
    0.27855E+00,    0.11229E+03,
    0.27905E+00,    0.11232E+03,
    0.27955E+00,    0.11234E+03,
    0.28005E+00,    0.11237E+03,
    0.28055E+00,    0.11240E+03,
    0.28105E+00,    0.11241E+03,
    0.28155E+00,    0.11244E+03,
    0.28205E+00,    0.11246E+03,
    0.28255E+00,    0.11248E+03,
    0.28305E+00,    0.11252E+03,
    0.28355E+00,    0.11254E+03,
    0.28405E+00,    0.11256E+03,
    0.28455E+00,    0.11259E+03,
    0.28505E+00,    0.11261E+03,
    0.28555E+00,    0.11263E+03,
    0.28605E+00,    0.11266E+03,
    0.28655E+00,    0.11270E+03,
    0.28705E+00,    0.11271E+03,
    0.28755E+00,    0.11274E+03,
    0.28805E+00,    0.11276E+03,
    0.28855E+00,    0.11278E+03,
    0.28905E+00,    0.11281E+03,
    0.28955E+00,    0.11284E+03,
    0.29005E+00,    0.11287E+03,
    0.29055E+00,    0.11290E+03,
    0.29105E+00,    0.11292E+03,
    0.29155E+00,    0.11294E+03,
    0.29205E+00,    0.11296E+03,
    0.29255E+00,    0.11299E+03,
    0.29305E+00,    0.11302E+03,
    0.29355E+00,    0.11305E+03,
    0.29405E+00,    0.11307E+03,
    0.29455E+00,    0.11309E+03,
    0.29505E+00,    0.11312E+03,
    0.29555E+00,    0.11314E+03,
    0.29605E+00,    0.11318E+03,
    0.29655E+00,    0.11319E+03,
    0.29705E+00,    0.11322E+03,
    0.29755E+00,    0.11324E+03,
    0.29805E+00,    0.11327E+03,
    0.29855E+00,    0.11330E+03,
    0.29905E+00,    0.11332E+03,
    0.29955E+00,    0.11335E+03,
    0.30005E+00,    0.11338E+03,
    0.30055E+00,    0.11340E+03,
    0.30105E+00,    0.11343E+03,
    0.30155E+00,    0.11345E+03,
    0.30205E+00,    0.11348E+03,
